# Data    : Pressure [Pa(a)]
# Column 1: Volume [m3]
# Column 2: Crank End

  2.81297815e-02   3.74900000e+06
  2.81310337e-02   3.74876638e+06
  2.81347901e-02   3.74806568e+06
  2.81410506e-02   3.74689837e+06
  2.81498152e-02   3.74526520e+06
  2.81610837e-02   3.74316727e+06
  2.81748557e-02   3.74060596e+06
  2.81911312e-02   3.73758295e+06
  2.82099096e-02   3.73410023e+06
  2.82311906e-02   3.73016009e+06
  2.82549738e-02   3.72576511e+06
  2.82812586e-02   3.72091814e+06
  2.83100446e-02   3.71562236e+06
  2.83413311e-02   3.70988119e+06
  2.83751175e-02   3.70369835e+06
  2.84114030e-02   3.69707781e+06
  2.84501869e-02   3.69002382e+06
  2.84914684e-02   3.68254088e+06
  2.85352467e-02   3.67463375e+06
  2.85815207e-02   3.66630742e+06
  2.86302896e-02   3.65756712e+06
  2.86815524e-02   3.64841832e+06
  2.87353078e-02   3.63886671e+06
  2.87915549e-02   3.62891816e+06
  2.88502925e-02   3.61857880e+06
  2.89115192e-02   3.60785491e+06
  2.89752339e-02   3.59675298e+06
  2.90414352e-02   3.58527967e+06
  2.91101216e-02   3.57344182e+06
  2.91812918e-02   3.56124641e+06
  2.92549442e-02   3.54870059e+06
  2.93310774e-02   3.53581164e+06
  2.94096895e-02   3.52258699e+06
  2.94907792e-02   3.50903417e+06
  2.95743445e-02   3.49516084e+06
  2.96603837e-02   3.48097474e+06
  2.97488950e-02   3.46648374e+06
  2.98398766e-02   3.45169578e+06
  2.99333264e-02   3.43661885e+06
  3.00292426e-02   3.42126105e+06
  3.01276230e-02   3.40563051e+06
  3.02284655e-02   3.38973541e+06
  3.03317681e-02   3.37358398e+06
  3.04375284e-02   3.35718447e+06
  3.05457443e-02   3.34054515e+06
  3.06564134e-02   3.32367432e+06
  3.07695333e-02   3.30658027e+06
  3.08851016e-02   3.28927130e+06
  3.10031158e-02   3.27175567e+06
  3.11235734e-02   3.25404166e+06
  3.12464717e-02   3.23613749e+06
  3.13718081e-02   3.21805138e+06
  3.14995799e-02   3.19979147e+06
  3.16297843e-02   3.18136589e+06
  3.17624185e-02   3.16278270e+06
  3.18974795e-02   3.14404989e+06
  3.20349646e-02   3.12517539e+06
  3.21748705e-02   3.10616708e+06
  3.23171944e-02   3.08703272e+06
  3.24619330e-02   3.06778003e+06
  3.26090831e-02   3.04841661e+06
  3.27586417e-02   3.02894999e+06
  3.29106052e-02   3.00938759e+06
  3.30649705e-02   2.98973673e+06
  3.32217341e-02   2.97000463e+06
  3.33808924e-02   2.95019840e+06
  3.35424420e-02   2.93032502e+06
  3.37063794e-02   2.91039139e+06
  3.38727007e-02   2.89040426e+06
  3.40414023e-02   2.87037027e+06
  3.42124805e-02   2.85029594e+06
  3.43859314e-02   2.83018766e+06
  3.45617511e-02   2.81005169e+06
  3.47399356e-02   2.78989417e+06
  3.49204810e-02   2.76972110e+06
  3.51033831e-02   2.74953834e+06
  3.52886378e-02   2.72935163e+06
  3.54762409e-02   2.70916658e+06
  3.56661882e-02   2.68898864e+06
  3.58584752e-02   2.66882316e+06
  3.60530976e-02   2.64867532e+06
  3.62500510e-02   2.62855018e+06
  3.64493308e-02   2.60845267e+06
  3.66509324e-02   2.58838756e+06
  3.68548513e-02   2.56835951e+06
  3.70610825e-02   2.54837304e+06
  3.72696215e-02   2.52843252e+06
  3.74804634e-02   2.50854220e+06
  3.76936032e-02   2.48870619e+06
  3.79090359e-02   2.46892847e+06
  3.81267566e-02   2.44921289e+06
  3.83467601e-02   2.42956317e+06
  3.85690413e-02   2.40998290e+06
  3.87935949e-02   2.39047555e+06
  3.90204156e-02   2.37104445e+06
  3.92494981e-02   2.35169282e+06
  3.94808368e-02   2.33242374e+06
  3.97144264e-02   2.31324020e+06
  3.99502612e-02   2.29414504e+06
  4.01883356e-02   2.27514099e+06
  4.04286438e-02   2.25623068e+06
  4.06711802e-02   2.23741661e+06
  4.09159388e-02   2.21870118e+06
  4.11629137e-02   2.20008668e+06
  4.14120990e-02   2.18157527e+06
  4.16634886e-02   2.16316904e+06
  4.19170763e-02   2.14486996e+06
  4.21728560e-02   2.12667989e+06
  4.24308215e-02   2.10860061e+06
  4.26909663e-02   2.09063379e+06
  4.29532840e-02   2.07278100e+06
  4.32177683e-02   2.05504375e+06
  4.34844125e-02   2.03742342e+06
  4.37532100e-02   2.01992132e+06
  4.40241542e-02   2.00253868e+06
  4.42972382e-02   1.98527664e+06
  4.45724552e-02   1.96813626e+06
  4.48497983e-02   1.96500000e+06
  4.51292606e-02   1.96500000e+06
  4.54108349e-02   1.96500000e+06
  4.56945142e-02   1.96500000e+06
  4.59802912e-02   1.96500000e+06
  4.62681587e-02   1.96500000e+06
  4.65581093e-02   1.96500000e+06
  4.68501356e-02   1.96500000e+06
  4.71442300e-02   1.96500000e+06
  4.74403850e-02   1.96500000e+06
  4.77385930e-02   1.96500000e+06
  4.80388462e-02   1.96500000e+06
  4.83411368e-02   1.96500000e+06
  4.86454570e-02   1.96500000e+06
  4.89517987e-02   1.96500000e+06
  4.92601540e-02   1.96500000e+06
  4.95705148e-02   1.96500000e+06
  4.98828728e-02   1.96500000e+06
  5.01972198e-02   1.96500000e+06
  5.05135474e-02   1.96500000e+06
  5.08318473e-02   1.96500000e+06
  5.11521109e-02   1.96500000e+06
  5.14743297e-02   1.96500000e+06
  5.17984950e-02   1.96500000e+06
  5.21245981e-02   1.96500000e+06
  5.24526302e-02   1.96500000e+06
  5.27825823e-02   1.96500000e+06
  5.31144456e-02   1.96500000e+06
  5.34482110e-02   1.96500000e+06
  5.37838693e-02   1.96500000e+06
  5.41214114e-02   1.96500000e+06
  5.44608279e-02   1.96500000e+06
  5.48021096e-02   1.96500000e+06
  5.51452469e-02   1.96500000e+06
  5.54902303e-02   1.96500000e+06
  5.58370503e-02   1.96500000e+06
  5.61856971e-02   1.96500000e+06
  5.65361610e-02   1.96500000e+06
  5.68884321e-02   1.96500000e+06
  5.72425006e-02   1.96500000e+06
  5.75983563e-02   1.96500000e+06
  5.79559892e-02   1.96500000e+06
  5.83153891e-02   1.96500000e+06
  5.86765458e-02   1.96500000e+06
  5.90394490e-02   1.96500000e+06
  5.94040882e-02   1.96500000e+06
  5.97704529e-02   1.96500000e+06
  6.01385325e-02   1.96500000e+06
  6.05083165e-02   1.96500000e+06
  6.08797939e-02   1.96500000e+06
  6.12529541e-02   1.96500000e+06
  6.16277860e-02   1.96500000e+06
  6.20042788e-02   1.96500000e+06
  6.23824213e-02   1.96500000e+06
  6.27622023e-02   1.96500000e+06
  6.31436107e-02   1.96500000e+06
  6.35266351e-02   1.96500000e+06
  6.39112640e-02   1.96500000e+06
  6.42974861e-02   1.96500000e+06
  6.46852897e-02   1.96500000e+06
  6.50746632e-02   1.96500000e+06
  6.54655948e-02   1.96500000e+06
  6.58580727e-02   1.96500000e+06
  6.62520851e-02   1.96500000e+06
  6.66476198e-02   1.96500000e+06
  6.70446650e-02   1.96500000e+06
  6.74432083e-02   1.96500000e+06
  6.78432376e-02   1.96500000e+06
  6.82447405e-02   1.96500000e+06
  6.86477046e-02   1.96500000e+06
  6.90521176e-02   1.96500000e+06
  6.94579667e-02   1.96500000e+06
  6.98652393e-02   1.96500000e+06
  7.02739228e-02   1.96500000e+06
  7.06840042e-02   1.96500000e+06
  7.10954708e-02   1.96500000e+06
  7.15083094e-02   1.96500000e+06
  7.19225071e-02   1.96500000e+06
  7.23380506e-02   1.96500000e+06
  7.27549269e-02   1.96500000e+06
  7.31731225e-02   1.96500000e+06
  7.35926240e-02   1.96500000e+06
  7.40134181e-02   1.96500000e+06
  7.44354911e-02   1.96500000e+06
  7.48588294e-02   1.96500000e+06
  7.52834192e-02   1.96500000e+06
  7.57092468e-02   1.96500000e+06
  7.61362984e-02   1.96500000e+06
  7.65645598e-02   1.96500000e+06
  7.69940172e-02   1.96500000e+06
  7.74246563e-02   1.96500000e+06
  7.78564629e-02   1.96500000e+06
  7.82894229e-02   1.96500000e+06
  7.87235217e-02   1.96500000e+06
  7.91587451e-02   1.96500000e+06
  7.95950783e-02   1.96500000e+06
  8.00325069e-02   1.96500000e+06
  8.04710162e-02   1.96500000e+06
  8.09105914e-02   1.96500000e+06
  8.13512176e-02   1.96500000e+06
  8.17928799e-02   1.96500000e+06
  8.22355635e-02   1.96500000e+06
  8.26792530e-02   1.96500000e+06
  8.31239336e-02   1.96500000e+06
  8.35695898e-02   1.96500000e+06
  8.40162064e-02   1.96500000e+06
  8.44637680e-02   1.96500000e+06
  8.49122592e-02   1.96500000e+06
  8.53616644e-02   1.96500000e+06
  8.58119680e-02   1.96500000e+06
  8.62631544e-02   1.96500000e+06
  8.67152078e-02   1.96500000e+06
  8.71681123e-02   1.96500000e+06
  8.76218521e-02   1.96500000e+06
  8.80764112e-02   1.96500000e+06
  8.85317735e-02   1.96500000e+06
  8.89879229e-02   1.96500000e+06
  8.94448432e-02   1.96500000e+06
  8.99025182e-02   1.96500000e+06
  9.03609315e-02   1.96500000e+06
  9.08200667e-02   1.96500000e+06
  9.12799073e-02   1.96500000e+06
  9.17404369e-02   1.96500000e+06
  9.22016386e-02   1.96500000e+06
  9.26634960e-02   1.96500000e+06
  9.31259922e-02   1.96500000e+06
  9.35891105e-02   1.96500000e+06
  9.40528338e-02   1.96500000e+06
  9.45171453e-02   1.96500000e+06
  9.49820280e-02   1.96500000e+06
  9.54474648e-02   1.96500000e+06
  9.59134384e-02   1.96500000e+06
  9.63799318e-02   1.96500000e+06
  9.68469276e-02   1.96500000e+06
  9.73144086e-02   1.96500000e+06
  9.77823572e-02   1.96500000e+06
  9.82507560e-02   1.96500000e+06
  9.87195875e-02   1.96500000e+06
  9.91888341e-02   1.96500000e+06
  9.96584782e-02   1.96500000e+06
  1.00128502e-01   1.96500000e+06
  1.00598888e-01   1.96500000e+06
  1.01069618e-01   1.96500000e+06
  1.01540674e-01   1.96500000e+06
  1.02012039e-01   1.96500000e+06
  1.02483694e-01   1.96500000e+06
  1.02955621e-01   1.96500000e+06
  1.03427803e-01   1.96500000e+06
  1.03900221e-01   1.96500000e+06
  1.04372856e-01   1.96500000e+06
  1.04845691e-01   1.96500000e+06
  1.05318708e-01   1.96500000e+06
  1.05791887e-01   1.96500000e+06
  1.06265211e-01   1.96500000e+06
  1.06738661e-01   1.96500000e+06
  1.07212218e-01   1.96500000e+06
  1.07685865e-01   1.96500000e+06
  1.08159581e-01   1.96500000e+06
  1.08633350e-01   1.96500000e+06
  1.09107152e-01   1.96500000e+06
  1.09580968e-01   1.96500000e+06
  1.10054779e-01   1.96500000e+06
  1.10528567e-01   1.96500000e+06
  1.11002313e-01   1.96500000e+06
  1.11475998e-01   1.96500000e+06
  1.11949603e-01   1.96500000e+06
  1.12423109e-01   1.96500000e+06
  1.12896497e-01   1.96500000e+06
  1.13369747e-01   1.96500000e+06
  1.13842842e-01   1.96500000e+06
  1.14315761e-01   1.96500000e+06
  1.14788486e-01   1.96500000e+06
  1.15260997e-01   1.96500000e+06
  1.15733275e-01   1.96500000e+06
  1.16205301e-01   1.96500000e+06
  1.16677056e-01   1.96500000e+06
  1.17148520e-01   1.96500000e+06
  1.17619673e-01   1.96500000e+06
  1.18090497e-01   1.96500000e+06
  1.18560972e-01   1.96500000e+06
  1.19031079e-01   1.96500000e+06
  1.19500798e-01   1.96500000e+06
  1.19970110e-01   1.96500000e+06
  1.20438994e-01   1.96500000e+06
  1.20907433e-01   1.96500000e+06
  1.21375406e-01   1.96500000e+06
  1.21842893e-01   1.96500000e+06
  1.22309875e-01   1.96500000e+06
  1.22776332e-01   1.96500000e+06
  1.23242245e-01   1.96500000e+06
  1.23707595e-01   1.96500000e+06
  1.24172360e-01   1.96500000e+06
  1.24636523e-01   1.96500000e+06
  1.25100063e-01   1.96500000e+06
  1.25562960e-01   1.96500000e+06
  1.26025194e-01   1.96500000e+06
  1.26486747e-01   1.96500000e+06
  1.26947598e-01   1.96500000e+06
  1.27407728e-01   1.96500000e+06
  1.27867117e-01   1.96500000e+06
  1.28325745e-01   1.96500000e+06
  1.28783592e-01   1.96500000e+06
  1.29240639e-01   1.96500000e+06
  1.29696866e-01   1.96500000e+06
  1.30152253e-01   1.96500000e+06
  1.30606780e-01   1.96500000e+06
  1.31060429e-01   1.96500000e+06
  1.31513178e-01   1.96500000e+06
  1.31965009e-01   1.96500000e+06
  1.32415901e-01   1.96500000e+06
  1.32865835e-01   1.96500000e+06
  1.33314791e-01   1.96500000e+06
  1.33762750e-01   1.96500000e+06
  1.34209692e-01   1.96500000e+06
  1.34655596e-01   1.96500000e+06
  1.35100444e-01   1.96500000e+06
  1.35544216e-01   1.96500000e+06
  1.35986892e-01   1.96500000e+06
  1.36428453e-01   1.96500000e+06
  1.36868879e-01   1.96500000e+06
  1.37308150e-01   1.96500000e+06
  1.37746247e-01   1.96500000e+06
  1.38183150e-01   1.96500000e+06
  1.38618840e-01   1.96500000e+06
  1.39053297e-01   1.96500000e+06
  1.39486502e-01   1.96500000e+06
  1.39918436e-01   1.96500000e+06
  1.40349079e-01   1.96500000e+06
  1.40778411e-01   1.96500000e+06
  1.41206413e-01   1.96500000e+06
  1.41633067e-01   1.96500000e+06
  1.42058352e-01   1.96500000e+06
  1.42482249e-01   1.96500000e+06
  1.42904740e-01   1.96500000e+06
  1.43325805e-01   1.96500000e+06
  1.43745424e-01   1.96500000e+06
  1.44163580e-01   1.96500000e+06
  1.44580252e-01   1.96500000e+06
  1.44995421e-01   1.96500000e+06
  1.45409069e-01   1.96500000e+06
  1.45821177e-01   1.96500000e+06
  1.46231726e-01   1.96500000e+06
  1.46640697e-01   1.96500000e+06
  1.47048071e-01   1.96500000e+06
  1.47453829e-01   1.96500000e+06
  1.47857953e-01   1.96500000e+06
  1.48260424e-01   1.96500000e+06
  1.48661223e-01   1.96500000e+06
  1.49060332e-01   1.96500000e+06
  1.49457733e-01   1.96500000e+06
  1.49853406e-01   1.96500000e+06
  1.50247334e-01   1.96500000e+06
  1.50639498e-01   1.96500000e+06
  1.51029880e-01   1.96500000e+06
  1.51418462e-01   1.96500000e+06
  1.51805225e-01   1.96500000e+06
  1.52190152e-01   1.96500000e+06
  1.52573225e-01   1.96500000e+06
  1.52954424e-01   1.96500000e+06
  1.53333734e-01   1.96500000e+06
  1.53711135e-01   1.96500000e+06
  1.54086610e-01   1.96500000e+06
  1.54460142e-01   1.96500000e+06
  1.54831712e-01   1.96500000e+06
  1.55201304e-01   1.96500000e+06
  1.55568899e-01   1.96500000e+06
  1.55934480e-01   1.96500000e+06
  1.56298031e-01   1.96500000e+06
  1.56659533e-01   1.96500000e+06
  1.57018970e-01   1.96500000e+06
  1.57376325e-01   1.96500000e+06
  1.57731580e-01   1.96500000e+06
  1.58084719e-01   1.96500000e+06
  1.58435724e-01   1.96500000e+06
  1.58784580e-01   1.96500000e+06
  1.59131269e-01   1.96500000e+06
  1.59475775e-01   1.96500000e+06
  1.59818081e-01   1.96500000e+06
  1.60158171e-01   1.96500000e+06
  1.60496028e-01   1.96500000e+06
  1.60831637e-01   1.96500000e+06
  1.61164981e-01   1.96500000e+06
  1.61496045e-01   1.96500000e+06
  1.61824811e-01   1.96500000e+06
  1.62151266e-01   1.96500000e+06
  1.62475391e-01   1.96500000e+06
  1.62797173e-01   1.96500000e+06
  1.63116596e-01   1.96500000e+06
  1.63433643e-01   1.96500000e+06
  1.63748300e-01   1.96500000e+06
  1.64060552e-01   1.96500000e+06
  1.64370383e-01   1.96500000e+06
  1.64677778e-01   1.96500000e+06
  1.64982722e-01   1.96500000e+06
  1.65285201e-01   1.96500000e+06
  1.65585200e-01   1.96500000e+06
  1.65882703e-01   1.96500000e+06
  1.66177698e-01   1.96500000e+06
  1.66470169e-01   1.96500000e+06
  1.66760101e-01   1.96500000e+06
  1.67047482e-01   1.96500000e+06
  1.67332296e-01   1.96500000e+06
  1.67614530e-01   1.96500000e+06
  1.67894171e-01   1.96500000e+06
  1.68171203e-01   1.96500000e+06
  1.68445614e-01   1.96500000e+06
  1.68717391e-01   1.96500000e+06
  1.68986519e-01   1.96500000e+06
  1.69252986e-01   1.96500000e+06
  1.69516779e-01   1.96500000e+06
  1.69777884e-01   1.96500000e+06
  1.70036289e-01   1.96500000e+06
  1.70291980e-01   1.96500000e+06
  1.70544946e-01   1.96500000e+06
  1.70795174e-01   1.96500000e+06
  1.71042652e-01   1.96500000e+06
  1.71287367e-01   1.96500000e+06
  1.71529307e-01   1.96500000e+06
  1.71768460e-01   1.96500000e+06
  1.72004814e-01   1.96500000e+06
  1.72238359e-01   1.96500000e+06
  1.72469081e-01   1.96500000e+06
  1.72696970e-01   1.96500000e+06
  1.72922014e-01   1.96500000e+06
  1.73144202e-01   1.96500000e+06
  1.73363524e-01   1.96500000e+06
  1.73579967e-01   1.96500000e+06
  1.73793522e-01   1.96500000e+06
  1.74004178e-01   1.96500000e+06
  1.74211924e-01   1.96500000e+06
  1.74416750e-01   1.96500000e+06
  1.74618646e-01   1.96500000e+06
  1.74817601e-01   1.96500000e+06
  1.75013606e-01   1.96500000e+06
  1.75206651e-01   1.96500000e+06
  1.75396727e-01   1.96500000e+06
  1.75583823e-01   1.96500000e+06
  1.75767930e-01   1.96500000e+06
  1.75949040e-01   1.96500000e+06
  1.76127143e-01   1.96500000e+06
  1.76302230e-01   1.96500000e+06
  1.76474293e-01   1.96500000e+06
  1.76643323e-01   1.96500000e+06
  1.76809310e-01   1.96500000e+06
  1.76972248e-01   1.96500000e+06
  1.77132128e-01   1.96500000e+06
  1.77288942e-01   1.96500000e+06
  1.77442682e-01   1.96500000e+06
  1.77593340e-01   1.96500000e+06
  1.77740908e-01   1.96500000e+06
  1.77885380e-01   1.96500000e+06
  1.78026748e-01   1.96500000e+06
  1.78165005e-01   1.96500000e+06
  1.78300143e-01   1.96500000e+06
  1.78432157e-01   1.96500000e+06
  1.78561039e-01   1.96500000e+06
  1.78686784e-01   1.96500000e+06
  1.78809383e-01   1.96500000e+06
  1.78928833e-01   1.96500000e+06
  1.79045126e-01   1.96500000e+06
  1.79158256e-01   1.96500000e+06
  1.79268218e-01   1.96500000e+06
  1.79375007e-01   1.96500000e+06
  1.79478616e-01   1.96500000e+06
  1.79579041e-01   1.96500000e+06
  1.79676277e-01   1.96500000e+06
  1.79770319e-01   1.96500000e+06
  1.79861161e-01   1.96500000e+06
  1.79948800e-01   1.96500000e+06
  1.80033231e-01   1.96500000e+06
  1.80114449e-01   1.96500000e+06
  1.80192451e-01   1.96500000e+06
  1.80267233e-01   1.96500000e+06
  1.80338790e-01   1.96500000e+06
  1.80407120e-01   1.96500000e+06
  1.80472218e-01   1.96500000e+06
  1.80534082e-01   1.96500000e+06
  1.80592709e-01   1.96500000e+06
  1.80648094e-01   1.96500000e+06
  1.80700236e-01   1.96500000e+06
  1.80749132e-01   1.96500000e+06
  1.80794780e-01   1.96500000e+06
  1.80837177e-01   1.96500000e+06
  1.80876320e-01   1.96500000e+06
  1.80912209e-01   1.96500000e+06
  1.80944841e-01   1.96500000e+06
  1.80974214e-01   1.96500000e+06
  1.81000328e-01   1.96500000e+06
  1.81023180e-01   1.96500000e+06
  1.81042770e-01   1.96500000e+06
  1.81059096e-01   1.96500000e+06
  1.81072158e-01   1.96500000e+06
  1.81081955e-01   1.96500000e+06
  1.81088487e-01   1.96500000e+06
  1.81091752e-01   1.96500000e+06
  1.81091752e-01   1.96500620e+06
  1.81088487e-01   1.96505582e+06
  1.81081955e-01   1.96515505e+06
  1.81072158e-01   1.96530391e+06
  1.81059096e-01   1.96550240e+06
  1.81042770e-01   1.96575055e+06
  1.81023180e-01   1.96604838e+06
  1.81000328e-01   1.96639590e+06
  1.80974214e-01   1.96679314e+06
  1.80944841e-01   1.96724015e+06
  1.80912209e-01   1.96773694e+06
  1.80876320e-01   1.96828356e+06
  1.80837177e-01   1.96888006e+06
  1.80794780e-01   1.96952648e+06
  1.80749132e-01   1.97022287e+06
  1.80700236e-01   1.97096929e+06
  1.80648094e-01   1.97176579e+06
  1.80592709e-01   1.97261245e+06
  1.80534082e-01   1.97350932e+06
  1.80472218e-01   1.97445648e+06
  1.80407120e-01   1.97545401e+06
  1.80338790e-01   1.97650198e+06
  1.80267233e-01   1.97760047e+06
  1.80192451e-01   1.97874958e+06
  1.80114449e-01   1.97994939e+06
  1.80033231e-01   1.98120001e+06
  1.79948800e-01   1.98250152e+06
  1.79861161e-01   1.98385404e+06
  1.79770319e-01   1.98525767e+06
  1.79676277e-01   1.98671252e+06
  1.79579041e-01   1.98821871e+06
  1.79478616e-01   1.98977637e+06
  1.79375007e-01   1.99138560e+06
  1.79268218e-01   1.99304655e+06
  1.79158256e-01   1.99475935e+06
  1.79045126e-01   1.99652413e+06
  1.78928833e-01   1.99834103e+06
  1.78809383e-01   2.00021020e+06
  1.78686784e-01   2.00213179e+06
  1.78561039e-01   2.00410595e+06
  1.78432157e-01   2.00613285e+06
  1.78300143e-01   2.00821264e+06
  1.78165005e-01   2.01034549e+06
  1.78026748e-01   2.01253158e+06
  1.77885380e-01   2.01477107e+06
  1.77740908e-01   2.01706416e+06
  1.77593340e-01   2.01941102e+06
  1.77442682e-01   2.02181184e+06
  1.77288942e-01   2.02426683e+06
  1.77132128e-01   2.02677616e+06
  1.76972248e-01   2.02934006e+06
  1.76809310e-01   2.03195873e+06
  1.76643323e-01   2.03463237e+06
  1.76474293e-01   2.03736122e+06
  1.76302230e-01   2.04014548e+06
  1.76127143e-01   2.04298538e+06
  1.75949040e-01   2.04588116e+06
  1.75767930e-01   2.04883305e+06
  1.75583823e-01   2.05184129e+06
  1.75396727e-01   2.05490613e+06
  1.75206651e-01   2.05802782e+06
  1.75013606e-01   2.06120661e+06
  1.74817601e-01   2.06444276e+06
  1.74618646e-01   2.06773655e+06
  1.74416750e-01   2.07108823e+06
  1.74211924e-01   2.07449808e+06
  1.74004178e-01   2.07796639e+06
  1.73793522e-01   2.08149344e+06
  1.73579967e-01   2.08507952e+06
  1.73363524e-01   2.08872493e+06
  1.73144202e-01   2.09242996e+06
  1.72922014e-01   2.09619493e+06
  1.72696970e-01   2.10002015e+06
  1.72469081e-01   2.10390593e+06
