# Data    : Pressure [Pa(a)]
# Column 1: Volume [m3]
# Column 2: Head End

  2.49143817e-02   3.74900000e+06
  2.49160651e-02   3.74864539e+06
  2.49211152e-02   3.74758194e+06
  2.49295317e-02   3.74581073e+06
  2.49413143e-02   3.74333358e+06
  2.49564623e-02   3.74015300e+06
  2.49749750e-02   3.73627224e+06
  2.49968513e-02   3.73169524e+06
  2.50220903e-02   3.72642665e+06
  2.50506906e-02   3.72047178e+06
  2.50826508e-02   3.71383662e+06
  2.51179693e-02   3.70652782e+06
  2.51566442e-02   3.69855267e+06
  2.51986737e-02   3.68991909e+06
  2.52440555e-02   3.68063560e+06
  2.52927874e-02   3.67071129e+06
  2.53448670e-02   3.66015584e+06
  2.54002915e-02   3.64897946e+06
  2.54590582e-02   3.63719288e+06
  2.55211641e-02   3.62480734e+06
  2.55866060e-02   3.61183452e+06
  2.56553807e-02   3.59828659e+06
  2.57274846e-02   3.58417611e+06
  2.58029142e-02   3.56951604e+06
  2.58816656e-02   3.55431971e+06
  2.59637347e-02   3.53860080e+06
  2.60491176e-02   3.52237327e+06
  2.61378097e-02   3.50565142e+06
  2.62298068e-02   3.48844975e+06
  2.63251040e-02   3.47078302e+06
  2.64236967e-02   3.45266620e+06
  2.65255798e-02   3.43411441e+06
  2.66307481e-02   3.41514294e+06
  2.67391964e-02   3.39576719e+06
  2.68509192e-02   3.37600265e+06
  2.69659108e-02   3.35586489e+06
  2.70841655e-02   3.33536953e+06
  2.72056773e-02   3.31453219e+06
  2.73304400e-02   3.29336850e+06
  2.74584474e-02   3.27189405e+06
  2.75896929e-02   3.25012441e+06
  2.77241701e-02   3.22807504e+06
  2.78618721e-02   3.20576134e+06
  2.80027920e-02   3.18319856e+06
  2.81469227e-02   3.16040187e+06
  2.82942570e-02   3.13738625e+06
  2.84447874e-02   3.11416652e+06
  2.85985063e-02   3.09075733e+06
  2.87554061e-02   3.06717314e+06
  2.89154788e-02   3.04342817e+06
  2.90787165e-02   3.01953643e+06
  2.92451108e-02   2.99551169e+06
  2.94146536e-02   2.97136748e+06
  2.95873362e-02   2.94711706e+06
  2.97631500e-02   2.92277342e+06
  2.99420862e-02   2.89834928e+06
  3.01241358e-02   2.87385707e+06
  3.03092897e-02   2.84930892e+06
  3.04975387e-02   2.82471667e+06
  3.06888732e-02   2.80009186e+06
  3.08832838e-02   2.77544571e+06
  3.10807608e-02   2.75078915e+06
  3.12812942e-02   2.72613276e+06
  3.14848740e-02   2.70148683e+06
  3.16914902e-02   2.67686133e+06
  3.19011323e-02   2.65226591e+06
  3.21137899e-02   2.62770988e+06
  3.23294524e-02   2.60320225e+06
  3.25481091e-02   2.57875172e+06
  3.27697491e-02   2.55436666e+06
  3.29943613e-02   2.53005512e+06
  3.32219346e-02   2.50582485e+06
  3.34524577e-02   2.48168329e+06
  3.36859191e-02   2.45763757e+06
  3.39223072e-02   2.43369451e+06
  3.41616103e-02   2.40986065e+06
  3.44038166e-02   2.38614223e+06
  3.46489139e-02   2.36254518e+06
  3.48968903e-02   2.33907518e+06
  3.51477333e-02   2.31573760e+06
  3.54014307e-02   2.29253756e+06
  3.56579698e-02   2.26947991e+06
  3.59173379e-02   2.24656921e+06
  3.61795223e-02   2.22380980e+06
  3.64445101e-02   2.20120574e+06
  3.67122881e-02   2.17876086e+06
  3.69828432e-02   2.15647876e+06
  3.72561620e-02   2.13436279e+06
  3.75322312e-02   2.11241608e+06
  3.78110370e-02   2.09064154e+06
  3.80925659e-02   2.06904188e+06
  3.83768039e-02   2.04761959e+06
  3.86637372e-02   2.02637695e+06
  3.89533517e-02   2.00531607e+06
  3.92456331e-02   1.98443886e+06
  3.95405673e-02   1.96500000e+06
  3.98381397e-02   1.96500000e+06
  4.01383357e-02   1.96500000e+06
  4.04411409e-02   1.96500000e+06
  4.07465403e-02   1.96500000e+06
  4.10545190e-02   1.96500000e+06
  4.13650622e-02   1.96500000e+06
  4.16781545e-02   1.96500000e+06
  4.19937809e-02   1.96500000e+06
  4.23119260e-02   1.96500000e+06
  4.26325742e-02   1.96500000e+06
  4.29557102e-02   1.96500000e+06
  4.32813181e-02   1.96500000e+06
  4.36093823e-02   1.96500000e+06
  4.39398868e-02   1.96500000e+06
  4.42728157e-02   1.96500000e+06
  4.46081529e-02   1.96500000e+06
  4.49458822e-02   1.96500000e+06
  4.52859873e-02   1.96500000e+06
  4.56284519e-02   1.96500000e+06
  4.59732594e-02   1.96500000e+06
  4.63203933e-02   1.96500000e+06
  4.66698370e-02   1.96500000e+06
  4.70215735e-02   1.96500000e+06
  4.73755862e-02   1.96500000e+06
  4.77318579e-02   1.96500000e+06
  4.80903718e-02   1.96500000e+06
  4.84511106e-02   1.96500000e+06
  4.88140571e-02   1.96500000e+06
  4.91791940e-02   1.96500000e+06
  4.95465039e-02   1.96500000e+06
  4.99159694e-02   1.96500000e+06
  5.02875729e-02   1.96500000e+06
  5.06612966e-02   1.96500000e+06
  5.10371230e-02   1.96500000e+06
  5.14150341e-02   1.96500000e+06
  5.17950121e-02   1.96500000e+06
  5.21770391e-02   1.96500000e+06
  5.25610969e-02   1.96500000e+06
  5.29471675e-02   1.96500000e+06
  5.33352326e-02   1.96500000e+06
  5.37252741e-02   1.96500000e+06
  5.41172735e-02   1.96500000e+06
  5.45112125e-02   1.96500000e+06
  5.49070725e-02   1.96500000e+06
  5.53048351e-02   1.96500000e+06
  5.57044816e-02   1.96500000e+06
  5.61059933e-02   1.96500000e+06
  5.65093516e-02   1.96500000e+06
  5.69145375e-02   1.96500000e+06
  5.73215323e-02   1.96500000e+06
  5.77303170e-02   1.96500000e+06
  5.81408726e-02   1.96500000e+06
  5.85531801e-02   1.96500000e+06
  5.89672204e-02   1.96500000e+06
  5.93829743e-02   1.96500000e+06
  5.98004226e-02   1.96500000e+06
  6.02195461e-02   1.96500000e+06
  6.06403254e-02   1.96500000e+06
  6.10627412e-02   1.96500000e+06
  6.14867740e-02   1.96500000e+06
  6.19124045e-02   1.96500000e+06
  6.23396131e-02   1.96500000e+06
  6.27683802e-02   1.96500000e+06
  6.31986863e-02   1.96500000e+06
  6.36305117e-02   1.96500000e+06
  6.40638367e-02   1.96500000e+06
  6.44986416e-02   1.96500000e+06
  6.49349067e-02   1.96500000e+06
  6.53726121e-02   1.96500000e+06
  6.58117381e-02   1.96500000e+06
  6.62522648e-02   1.96500000e+06
  6.66941721e-02   1.96500000e+06
  6.71374404e-02   1.96500000e+06
  6.75820494e-02   1.96500000e+06
  6.80279794e-02   1.96500000e+06
  6.84752102e-02   1.96500000e+06
  6.89237217e-02   1.96500000e+06
  6.93734940e-02   1.96500000e+06
  6.98245069e-02   1.96500000e+06
  7.02767403e-02   1.96500000e+06
  7.07301740e-02   1.96500000e+06
  7.11847878e-02   1.96500000e+06
  7.16405617e-02   1.96500000e+06
  7.20974753e-02   1.96500000e+06
  7.25555084e-02   1.96500000e+06
  7.30146408e-02   1.96500000e+06
  7.34748523e-02   1.96500000e+06
  7.39361225e-02   1.96500000e+06
  7.43984312e-02   1.96500000e+06
  7.48617581e-02   1.96500000e+06
  7.53260828e-02   1.96500000e+06
  7.57913851e-02   1.96500000e+06
  7.62576447e-02   1.96500000e+06
  7.67248411e-02   1.96500000e+06
  7.71929542e-02   1.96500000e+06
  7.76619634e-02   1.96500000e+06
  7.81318486e-02   1.96500000e+06
  7.86025893e-02   1.96500000e+06
  7.90741652e-02   1.96500000e+06
  7.95465559e-02   1.96500000e+06
  8.00197412e-02   1.96500000e+06
  8.04937006e-02   1.96500000e+06
  8.09684139e-02   1.96500000e+06
  8.14438607e-02   1.96500000e+06
  8.19200207e-02   1.96500000e+06
  8.23968735e-02   1.96500000e+06
  8.28743989e-02   1.96500000e+06
  8.33525766e-02   1.96500000e+06
  8.38313862e-02   1.96500000e+06
  8.43108075e-02   1.96500000e+06
  8.47908203e-02   1.96500000e+06
  8.52714042e-02   1.96500000e+06
  8.57525392e-02   1.96500000e+06
  8.62342048e-02   1.96500000e+06
  8.67163810e-02   1.96500000e+06
  8.71990475e-02   1.96500000e+06
  8.76821842e-02   1.96500000e+06
  8.81657710e-02   1.96500000e+06
  8.86497878e-02   1.96500000e+06
  8.91342143e-02   1.96500000e+06
  8.96190307e-02   1.96500000e+06
  9.01042168e-02   1.96500000e+06
  9.05897525e-02   1.96500000e+06
  9.10756180e-02   1.96500000e+06
  9.15617933e-02   1.96500000e+06
  9.20482583e-02   1.96500000e+06
  9.25349933e-02   1.96500000e+06
  9.30219783e-02   1.96500000e+06
  9.35091935e-02   1.96500000e+06
  9.39966190e-02   1.96500000e+06
  9.44842352e-02   1.96500000e+06
  9.49720222e-02   1.96500000e+06
  9.54599604e-02   1.96500000e+06
  9.59480301e-02   1.96500000e+06
  9.64362116e-02   1.96500000e+06
  9.69244855e-02   1.96500000e+06
  9.74128320e-02   1.96500000e+06
  9.79012317e-02   1.96500000e+06
  9.83896652e-02   1.96500000e+06
  9.88781130e-02   1.96500000e+06
  9.93665557e-02   1.96500000e+06
  9.98549740e-02   1.96500000e+06
  1.00343349e-01   1.96500000e+06
  1.00831660e-01   1.96500000e+06
  1.01319890e-01   1.96500000e+06
  1.01808018e-01   1.96500000e+06
  1.02296026e-01   1.96500000e+06
  1.02783894e-01   1.96500000e+06
  1.03271604e-01   1.96500000e+06
  1.03759136e-01   1.96500000e+06
  1.04246472e-01   1.96500000e+06
  1.04733593e-01   1.96500000e+06
  1.05220480e-01   1.96500000e+06
  1.05707114e-01   1.96500000e+06
  1.06193477e-01   1.96500000e+06
  1.06679550e-01   1.96500000e+06
  1.07165314e-01   1.96500000e+06
  1.07650751e-01   1.96500000e+06
  1.08135842e-01   1.96500000e+06
  1.08620569e-01   1.96500000e+06
  1.09104915e-01   1.96500000e+06
  1.09588859e-01   1.96500000e+06
  1.10072385e-01   1.96500000e+06
  1.10555473e-01   1.96500000e+06
  1.11038107e-01   1.96500000e+06
  1.11520267e-01   1.96500000e+06
  1.12001936e-01   1.96500000e+06
  1.12483096e-01   1.96500000e+06
  1.12963730e-01   1.96500000e+06
  1.13443818e-01   1.96500000e+06
  1.13923345e-01   1.96500000e+06
  1.14402291e-01   1.96500000e+06
  1.14880640e-01   1.96500000e+06
  1.15358374e-01   1.96500000e+06
  1.15835475e-01   1.96500000e+06
  1.16311926e-01   1.96500000e+06
  1.16787710e-01   1.96500000e+06
  1.17262810e-01   1.96500000e+06
  1.17737208e-01   1.96500000e+06
  1.18210887e-01   1.96500000e+06
  1.18683831e-01   1.96500000e+06
  1.19156022e-01   1.96500000e+06
  1.19627443e-01   1.96500000e+06
  1.20098078e-01   1.96500000e+06
  1.20567910e-01   1.96500000e+06
  1.21036923e-01   1.96500000e+06
  1.21505098e-01   1.96500000e+06
  1.21972422e-01   1.96500000e+06
  1.22438875e-01   1.96500000e+06
  1.22904444e-01   1.96500000e+06
  1.23369110e-01   1.96500000e+06
  1.23832858e-01   1.96500000e+06
  1.24295672e-01   1.96500000e+06
  1.24757536e-01   1.96500000e+06
  1.25218434e-01   1.96500000e+06
  1.25678349e-01   1.96500000e+06
  1.26137266e-01   1.96500000e+06
  1.26595170e-01   1.96500000e+06
  1.27052045e-01   1.96500000e+06
  1.27507874e-01   1.96500000e+06
  1.27962643e-01   1.96500000e+06
  1.28416336e-01   1.96500000e+06
  1.28868938e-01   1.96500000e+06
  1.29320434e-01   1.96500000e+06
  1.29770808e-01   1.96500000e+06
  1.30220045e-01   1.96500000e+06
  1.30668131e-01   1.96500000e+06
  1.31115050e-01   1.96500000e+06
  1.31560787e-01   1.96500000e+06
  1.32005328e-01   1.96500000e+06
  1.32448659e-01   1.96500000e+06
  1.32890763e-01   1.96500000e+06
  1.33331628e-01   1.96500000e+06
  1.33771238e-01   1.96500000e+06
  1.34209579e-01   1.96500000e+06
  1.34646637e-01   1.96500000e+06
  1.35082398e-01   1.96500000e+06
  1.35516848e-01   1.96500000e+06
  1.35949972e-01   1.96500000e+06
  1.36381756e-01   1.96500000e+06
  1.36812188e-01   1.96500000e+06
  1.37241252e-01   1.96500000e+06
  1.37668936e-01   1.96500000e+06
  1.38095225e-01   1.96500000e+06
  1.38520107e-01   1.96500000e+06
  1.38943568e-01   1.96500000e+06
  1.39365594e-01   1.96500000e+06
  1.39786172e-01   1.96500000e+06
  1.40205290e-01   1.96500000e+06
  1.40622933e-01   1.96500000e+06
  1.41039089e-01   1.96500000e+06
  1.41453746e-01   1.96500000e+06
  1.41866889e-01   1.96500000e+06
  1.42278508e-01   1.96500000e+06
  1.42688588e-01   1.96500000e+06
  1.43097117e-01   1.96500000e+06
  1.43504083e-01   1.96500000e+06
  1.43909473e-01   1.96500000e+06
  1.44313275e-01   1.96500000e+06
  1.44715478e-01   1.96500000e+06
  1.45116068e-01   1.96500000e+06
  1.45515033e-01   1.96500000e+06
  1.45912362e-01   1.96500000e+06
  1.46308043e-01   1.96500000e+06
  1.46702064e-01   1.96500000e+06
  1.47094413e-01   1.96500000e+06
  1.47485079e-01   1.96500000e+06
  1.47874050e-01   1.96500000e+06
  1.48261315e-01   1.96500000e+06
  1.48646861e-01   1.96500000e+06
  1.49030679e-01   1.96500000e+06
  1.49412756e-01   1.96500000e+06
  1.49793082e-01   1.96500000e+06
  1.50171646e-01   1.96500000e+06
  1.50548436e-01   1.96500000e+06
  1.50923442e-01   1.96500000e+06
  1.51296653e-01   1.96500000e+06
  1.51668059e-01   1.96500000e+06
  1.52037648e-01   1.96500000e+06
  1.52405410e-01   1.96500000e+06
  1.52771335e-01   1.96500000e+06
  1.53135412e-01   1.96500000e+06
  1.53497631e-01   1.96500000e+06
  1.53857982e-01   1.96500000e+06
  1.54216455e-01   1.96500000e+06
  1.54573040e-01   1.96500000e+06
  1.54927726e-01   1.96500000e+06
  1.55280504e-01   1.96500000e+06
  1.55631365e-01   1.96500000e+06
  1.55980298e-01   1.96500000e+06
  1.56327294e-01   1.96500000e+06
  1.56672343e-01   1.96500000e+06
  1.57015436e-01   1.96500000e+06
  1.57356563e-01   1.96500000e+06
  1.57695716e-01   1.96500000e+06
  1.58032885e-01   1.96500000e+06
  1.58368061e-01   1.96500000e+06
  1.58701234e-01   1.96500000e+06
  1.59032397e-01   1.96500000e+06
  1.59361539e-01   1.96500000e+06
  1.59688653e-01   1.96500000e+06
  1.60013729e-01   1.96500000e+06
  1.60336759e-01   1.96500000e+06
  1.60657735e-01   1.96500000e+06
  1.60976647e-01   1.96500000e+06
  1.61293488e-01   1.96500000e+06
  1.61608248e-01   1.96500000e+06
  1.61920921e-01   1.96500000e+06
  1.62231497e-01   1.96500000e+06
  1.62539969e-01   1.96500000e+06
  1.62846329e-01   1.96500000e+06
  1.63150569e-01   1.96500000e+06
  1.63452680e-01   1.96500000e+06
  1.63752655e-01   1.96500000e+06
  1.64050487e-01   1.96500000e+06
  1.64346167e-01   1.96500000e+06
  1.64639689e-01   1.96500000e+06
  1.64931044e-01   1.96500000e+06
  1.65220226e-01   1.96500000e+06
  1.65507227e-01   1.96500000e+06
  1.65792040e-01   1.96500000e+06
  1.66074657e-01   1.96500000e+06
  1.66355072e-01   1.96500000e+06
  1.66633277e-01   1.96500000e+06
  1.66909267e-01   1.96500000e+06
  1.67183032e-01   1.96500000e+06
  1.67454568e-01   1.96500000e+06
  1.67723867e-01   1.96500000e+06
  1.67990923e-01   1.96500000e+06
  1.68255729e-01   1.96500000e+06
  1.68518278e-01   1.96500000e+06
  1.68778565e-01   1.96500000e+06
  1.69036582e-01   1.96500000e+06
  1.69292324e-01   1.96500000e+06
  1.69545784e-01   1.96500000e+06
  1.69796956e-01   1.96500000e+06
  1.70045834e-01   1.96500000e+06
  1.70292413e-01   1.96500000e+06
  1.70536685e-01   1.96500000e+06
  1.70778646e-01   1.96500000e+06
  1.71018290e-01   1.96500000e+06
  1.71255610e-01   1.96500000e+06
  1.71490602e-01   1.96500000e+06
  1.71723259e-01   1.96500000e+06
  1.71953576e-01   1.96500000e+06
  1.72181549e-01   1.96500000e+06
  1.72407170e-01   1.96500000e+06
  1.72630435e-01   1.96500000e+06
  1.72851340e-01   1.96500000e+06
  1.73069877e-01   1.96500000e+06
  1.73286044e-01   1.96500000e+06
  1.73499834e-01   1.96500000e+06
  1.73711242e-01   1.96500000e+06
  1.73920264e-01   1.96500000e+06
  1.74126896e-01   1.96500000e+06
  1.74331131e-01   1.96500000e+06
  1.74532965e-01   1.96500000e+06
  1.74732395e-01   1.96500000e+06
  1.74929414e-01   1.96500000e+06
  1.75124019e-01   1.96500000e+06
  1.75316206e-01   1.96500000e+06
  1.75505969e-01   1.96500000e+06
  1.75693305e-01   1.96500000e+06
  1.75878210e-01   1.96500000e+06
  1.76060678e-01   1.96500000e+06
  1.76240707e-01   1.96500000e+06
  1.76418292e-01   1.96500000e+06
  1.76593428e-01   1.96500000e+06
  1.76766113e-01   1.96500000e+06
  1.76936342e-01   1.96500000e+06
  1.77104112e-01   1.96500000e+06
  1.77269418e-01   1.96500000e+06
  1.77432257e-01   1.96500000e+06
  1.77592626e-01   1.96500000e+06
  1.77750521e-01   1.96500000e+06
  1.77905938e-01   1.96500000e+06
  1.78058874e-01   1.96500000e+06
  1.78209326e-01   1.96500000e+06
  1.78357290e-01   1.96500000e+06
  1.78502763e-01   1.96500000e+06
  1.78645742e-01   1.96500000e+06
  1.78786223e-01   1.96500000e+06
  1.78924204e-01   1.96500000e+06
  1.79059682e-01   1.96500000e+06
  1.79192654e-01   1.96500000e+06
  1.79323117e-01   1.96500000e+06
  1.79451067e-01   1.96500000e+06
  1.79576503e-01   1.96500000e+06
  1.79699421e-01   1.96500000e+06
  1.79819819e-01   1.96500000e+06
  1.79937695e-01   1.96500000e+06
  1.80053045e-01   1.96500000e+06
  1.80165868e-01   1.96500000e+06
  1.80276160e-01   1.96500000e+06
  1.80383920e-01   1.96500000e+06
  1.80489144e-01   1.96500000e+06
  1.80591832e-01   1.96500000e+06
  1.80691981e-01   1.96500000e+06
  1.80789588e-01   1.96500000e+06
  1.80884652e-01   1.96500000e+06
  1.80977170e-01   1.96500000e+06
  1.81067140e-01   1.96500000e+06
  1.81154562e-01   1.96500000e+06
  1.81239432e-01   1.96500000e+06
  1.81321749e-01   1.96500000e+06
  1.81401511e-01   1.96500000e+06
  1.81478716e-01   1.96500000e+06
  1.81553364e-01   1.96500000e+06
  1.81625452e-01   1.96500000e+06
  1.81694979e-01   1.96500000e+06
  1.81761943e-01   1.96500000e+06
  1.81826343e-01   1.96500000e+06
  1.81888177e-01   1.96500000e+06
  1.81947445e-01   1.96500000e+06
  1.82004145e-01   1.96500000e+06
  1.82058276e-01   1.96500000e+06
  1.82109837e-01   1.96500000e+06
  1.82158826e-01   1.96500000e+06
  1.82205242e-01   1.96500000e+06
  1.82249086e-01   1.96500000e+06
  1.82290355e-01   1.96500000e+06
  1.82329049e-01   1.96500000e+06
  1.82365167e-01   1.96500000e+06
  1.82398708e-01   1.96500000e+06
  1.82429672e-01   1.96500000e+06
  1.82458058e-01   1.96500000e+06
  1.82483865e-01   1.96500000e+06
  1.82507093e-01   1.96500000e+06
  1.82527741e-01   1.96500000e+06
  1.82545809e-01   1.96500000e+06
  1.82561297e-01   1.96500000e+06
  1.82574204e-01   1.96500000e+06
  1.82584530e-01   1.96500000e+06
  1.82592274e-01   1.96500000e+06
  1.82597437e-01   1.96500000e+06
  1.82600019e-01   1.96500000e+06
  1.82600019e-01   1.96500486e+06
  1.82597437e-01   1.96504376e+06
  1.82592274e-01   1.96512155e+06
  1.82584530e-01   1.96523824e+06
  1.82574204e-01   1.96539385e+06
  1.82561297e-01   1.96558839e+06
  1.82545809e-01   1.96582187e+06
  1.82527741e-01   1.96609430e+06
  1.82507093e-01   1.96640572e+06
  1.82483865e-01   1.96675615e+06
  1.82458058e-01   1.96714562e+06
  1.82429672e-01   1.96757415e+06
  1.82398708e-01   1.96804178e+06
  1.82365167e-01   1.96854856e+06
  1.82329049e-01   1.96909452e+06
  1.82290355e-01   1.96967970e+06
  1.82249086e-01   1.97030416e+06
  1.82205242e-01   1.97096794e+06
  1.82158826e-01   1.97167110e+06
  1.82109837e-01   1.97241369e+06
  1.82058276e-01   1.97319578e+06
  1.82004145e-01   1.97401743e+06
  1.81947445e-01   1.97487871e+06
  1.81888177e-01   1.97577968e+06
  1.81826343e-01   1.97672043e+06
  1.81761943e-01   1.97770102e+06
  1.81694979e-01   1.97872153e+06
  1.81625452e-01   1.97978206e+06
  1.81553364e-01   1.98088268e+06
  1.81478716e-01   1.98202349e+06
  1.81401511e-01   1.98320458e+06
  1.81321749e-01   1.98442604e+06
  1.81239432e-01   1.98568798e+06
  1.81154562e-01   1.98699050e+06
  1.81067140e-01   1.98833371e+06
  1.80977170e-01   1.98971771e+06
  1.80884652e-01   1.99114263e+06
  1.80789588e-01   1.99260857e+06
  1.80691981e-01   1.99411566e+06
  1.80591832e-01   1.99566403e+06
  1.80489144e-01   1.99725379e+06
  1.80383920e-01   1.99888509e+06
  1.80276160e-01   2.00055805e+06
  1.80165868e-01   2.00227282e+06
  1.80053045e-01   2.00402953e+06
  1.79937695e-01   2.00582833e+06
  1.79819819e-01   2.00766938e+06
  1.79699421e-01   2.00955282e+06
  1.79576503e-01   2.01147881e+06
  1.79451067e-01   2.01344751e+06
  1.79323117e-01   2.01545908e+06
  1.79192654e-01   2.01751370e+06
  1.79059682e-01   2.01961153e+06
  1.78924204e-01   2.02175275e+06
  1.78786223e-01   2.02393754e+06
  1.78645742e-01   2.02616608e+06
  1.78502763e-01   2.02843855e+06
  1.78357290e-01   2.03075516e+06
  1.78209326e-01   2.03311609e+06
  1.78058874e-01   2.03552154e+06
  1.77905938e-01   2.03797172e+06
  1.77750521e-01   2.04046684e+06
  1.77592626e-01   2.04300709e+06
  1.77432257e-01   2.04559270e+06
  1.77269418e-01   2.04822390e+06
  1.77104112e-01   2.05090089e+06
  1.76936342e-01   2.05362391e+06
  1.76766113e-01   2.05639319e+06
  1.76593428e-01   2.05920897e+06
  1.76418292e-01   2.06207149e+06
  1.76240707e-01   2.06498099e+06
  1.76060678e-01   2.06793773e+06
  1.75878210e-01   2.07094195e+06
  1.75693305e-01   2.07399391e+06
